Time;Voltage;error;
-3.36e-08;0.0007333333333333333;0.00016329931618554522;
-3.32e-08;0.0012666666666666666;0.00039327683210007;
-3.28e-08;0.0017999999999999997;0.000606630035524124;
-3.24e-08;0.002466666666666667;0.0008914407813571614;
-3.2e-08;0.0031333333333333335;0.001197775716345371;
-3.16e-08;0.0036666666666666666;0.001348579499572297;
-3.12e-08;0.0044666666666666665;0.0015680136053831506;
-3.08e-08;0.0052;0.001619876538505327;
-3.04e-08;0.005933333333333333;0.0018140194780284656;
-3e-08;0.006599999999999999;0.0020356817039999158;
-2.96e-08;0.006866666666666666;0.002167640806652861;
-2.92e-08;0.0074;0.0023562682360037026;
-2.88e-08;0.0078000000000000005;0.002475479751482528;
-2.84e-08;0.0082;0.0026138094804327265;
-2.8e-08;0.008733333333333334;0.0026941912824940003;
-2.76e-08;0.009333333333333334;0.0028359595671776892;
-2.72e-08;0.009866666666666666;0.0029028721409436326;
-2.68e-08;0.010333333333333333;0.002987083304273027;
-2.64e-08;0.010799999999999999;0.0029175332046096755;
-2.6e-08;0.011266666666666666;0.0029111280745901004;
-2.56e-08;0.011733333333333333;0.0030216993011659295;
-2.52e-08;0.012333333333333333;0.003019050623402441;
-2.48e-08;0.012733333333333333;0.003398038649966576;
-2.44e-08;0.013333333333333334;0.003636848452529562;
-2.4e-08;0.013866666666666666;0.003715194028131864;
-2.36e-08;0.014400000000000003;0.003760850967533811;
-2.32e-08;0.014866666666666667;0.003660965264334895;
-2.28e-08;0.015266666666666666;0.0034725590947695434;
-2.24e-08;0.01593333333333333;0.0032928204728874403;
-2.2e-08;0.016466666666666668;0.0032339861883852673;
-2.16e-08;0.01693333333333333;0.003353008599253313;
-2.12e-08;0.017733333333333334;0.0032561736235444615;
-2.08e-08;0.018333333333333333;0.003174061541096307;
-2.04e-08;0.019;0.003106122985330748;
-2e-08;0.019533333333333333;0.003174061541096308;
-1.96e-08;0.02;0.0032397530770106537;
-1.92e-08;0.020533333333333334;0.003295249105404122;
-1.88e-08;0.02093333333333333;0.003437828772156441;
-1.84e-08;0.021400000000000002;0.0035575272310974662;
-1.8e-08;0.0218;0.003493994848307593;
-1.76e-08;0.02233333333333333;0.0035545276291888165;
-1.72e-08;0.022666666666666665;0.0034378287721564416;
-1.68e-08;0.023066666666666666;0.003236458970335738;
-1.64e-08;0.0234;0.0031266595593380485;
-1.6e-08;0.023733333333333332;0.003084585331396534;
-1.56e-08;0.0242;0.003033150177620621;
-1.52e-08;0.024800000000000003;0.0029065443399335913;
-1.48e-08;0.02513333333333333;0.0028779622420502093;
-1.44e-08;0.025466666666666665;0.0028019041144669216;
-1.4e-08;0.025866666666666666;0.0027442060175334264;
-1.36e-08;0.02626666666666667;0.002673325020768456;
-1.32e-08;0.026666666666666672;0.002487301080823684;
-1.28e-08;0.027;0.00253929123969662;
-1.24e-08;0.027266666666666665;0.002471167065713418;
-1.2e-08;0.027533333333333337;0.002597434631837087;
-1.16e-08;0.027800000000000002;0.0026862613424609313;
-1.12e-08;0.028066666666666667;0.00277608837515427;
-1.08e-08;0.028399999999999998;0.002817090697865442;
-1.04e-08;0.0286;0.0028028556866167755;
-1e-08;0.028800000000000003;0.00280570846668003;
-9.6e-09;0.029066666666666668;0.002637170200549573;
-9.2e-09;0.02946666666666667;0.0025382408606487027;
-8.8e-09;0.029800000000000004;0.002301303978182804;
-8.4e-09;0.03;0.002161480973777007;
-8e-09;0.030266666666666674;0.002141650453894536;
-7.6e-09;0.030533333333333332;0.0022721502297750177;
-7.2e-09;0.03073333333333333;0.002338090388900023;
-6.8e-09;0.03093333333333333;0.00244840083864278;
-6.4e-09;0.03106666666666667;0.0023278029698981543;
-6e-09;0.031400000000000004;0.0022873565528793273;
-5.6e-09;0.031599999999999996;0.0021614809737770073;
-5.2e-09;0.03186666666666666;0.002034371319761136;
-4.8e-09;0.03206666666666667;0.0020146132796809084;
-4.4e-09;0.0322;0.001987963782366268;
-4e-09;0.032466666666666665;0.0021077634275854253;
-3.6e-09;0.03253333333333334;0.00215654043937661;
-3.2e-09;0.03273333333333333;0.0022402380825855698;
-2.8e-09;0.032733333333333337;0.0021969676071045426;
-2.4e-09;0.0328;0.002116601048851671;
-2e-09;0.03286666666666666;0.0019825908974538;
-1.6e-09;0.03306666666666667;0.0019043809142780936;
-1.2e-09;0.033400000000000006;0.0018547236990991394;
-8e-10;0.03353333333333333;0.0017420294677951515;
-4e-10;0.03366666666666667;0.0017783887838902566;
-0.0;0.03386666666666666;0.0019211107897949724;
4e-10;0.033999999999999996;0.0018590320061795595;
8e-10;0.03426666666666667;0.0018532853710820326;
1.2e-09;0.034333333333333334;0.0016860209567697159;
1.6e-09;0.03453333333333334;0.0014895189380020196;
2e-09;0.0348;0.0014751271131668614;
2.4e-09;0.03493333333333334;0.0015731073284002788;
2.8e-09;0.03506666666666667;0.0015318833724101413;
3.2e-09;0.03506666666666666;0.0015108496505829658;
3.6e-09;0.03513333333333333;0.0015882904856060398;
4e-09;0.03526666666666667;0.0016280868117722312;
4.4e-09;0.035333333333333335;0.0018704723111200184;
4.8e-09;0.03566666666666666;0.0018315749142927987;
5.2e-09;0.03573333333333333;0.0018184242262647824;
5.6e-09;0.0358;0.0018022208521710095;
6e-09;0.0358;0.0016346253393362052;
6.4e-09;0.0358;0.0016346253393362052;
6.8e-09;0.036;0.001559487095169434;
7.2e-09;0.03593333333333334;0.001505545305418161;
7.6e-09;0.036066666666666664;0.0015474710551951086;
8e-09;0.0362;0.0018373894524569363;
8.4e-09;0.03626666666666667;0.001986621923433512;
8.8e-09;0.036533333333333334;0.002018580359229392;
9.2e-09;0.0366;0.0020513410247932928;
9.6e-09;0.036800000000000006;0.001975854245636555;
1e-08;0.0368;0.0018242806801586217;
1.04e-08;0.0368;0.0019431932482385805;
1.08e-08;0.0368;0.0019431932482385805;
1.12e-08;0.03666666666666667;0.0021115555087817765;
1.16e-08;0.03673333333333333;0.0019500427345744687;
1.2e-08;0.037;0.0020039960079800564;
1.24e-08;0.037000000000000005;0.0019057806799314546;
1.28e-08;0.03733333333333333;0.0019043809142780944;
1.32e-08;0.037200000000000004;0.0017158088471621764;
1.36e-08;0.03713333333333333;0.00154747105519511;
1.4e-08;0.036866666666666666;0.0014624180888742672;
1.44e-08;0.03673333333333333;0.0014624180888742672;
1.48e-08;0.03673333333333333;0.0014624180888742672;
1.52e-08;0.0366;0.001402854233340014;
1.56e-08;0.0368;0.0013145341380123988;
1.6e-08;0.036866666666666666;0.0013246383154154446;
1.64e-08;0.036866666666666666;0.0012754084313139325;
1.68e-08;0.037;0.0014477568856683088;
1.72e-08;0.037;0.0014913081505845806;
1.76e-08;0.037066666666666664;0.0015731073284002816;
1.8e-08;0.037066666666666664;0.0016717256553234645;
1.84e-08;0.037;0.0017297398648351715;
1.88e-08;0.036866666666666666;0.0018140194780284656;
1.92e-08;0.036866666666666666;0.001848963673701208;
1.96e-08;0.036866666666666666;0.0017420294677951528;
2e-08;0.036866666666666666;0.0015882904856060372;
2.04e-08;0.036866666666666666;0.001505545305418161;
2.08e-08;0.037066666666666664;0.0014895189380020218;
2.12e-08;0.036933333333333325;0.0013063945294843617;
2.16e-08;0.036933333333333325;0.001281665583007777;
2.2e-08;0.037;0.0012066482503198682;
2.24e-08;0.037066666666666664;0.0011775681155103794;
2.28e-08;0.03746666666666667;0.0011775681155103807;
2.32e-08;0.03746666666666667;0.0012307179476495286;
2.36e-08;0.03753333333333333;0.0011707547423208111;
2.4e-08;0.03753333333333333;0.0009933109617167553;
2.44e-08;0.037533333333333335;0.0008914407813571614;
2.48e-08;0.03766666666666667;0.0007763160868271811;
2.52e-08;0.037599999999999995;0.0007589466384404102;
2.56e-08;0.03766666666666667;0.0007339391437078883;
2.6e-08;0.0376;0.0008390470785361214;
2.64e-08;0.0376;0.0008;
2.68e-08;0.03766666666666666;0.000816496580927726;
2.72e-08;0.037733333333333334;0.0007865536642001395;
2.76e-08;0.037733333333333334;0.0007865536642001395;
2.8e-08;0.037733333333333334;0.000968848113311198;
2.84e-08;0.0378;0.0009715966241192902;
2.88e-08;0.037866666666666667;0.0011219031449580077;
2.92e-08;0.03786666666666666;0.0011219031449580072;
2.96e-08;0.0378;0.001124277545804416;
3e-08;0.037733333333333334;0.0008640987597877142;
3.04e-08;0.037733333333333334;0.000968848113311198;
3.08e-08;0.0378;0.0007483314773547886;
3.12e-08;0.0376;0.0008;
3.16e-08;0.0376;0.0007589466384404108;
3.2e-08;0.037533333333333335;0.0008164965809277263;
3.24e-08;0.037399999999999996;0.0006572670690061983;
3.28e-08;0.03746666666666667;0.0005465040408511783;
3.32e-08;0.037399999999999996;0.0005513619500836086;
3.36e-08;0.037333333333333336;0.0004131182235954584;
3.4e-08;0.03746666666666666;0.0006531972647421802;
3.44e-08;0.037399999999999996;0.0006066300355241236;
3.48e-08;0.03753333333333333;0.00053166405433005;
3.52e-08;0.037533333333333335;0.0007763160868271808;
3.56e-08;0.03753333333333333;0.00053166405433005;
3.6e-08;0.03753333333333333;0.0006889605697474029;
3.64e-08;0.037399999999999996;0.000551361950083609;
3.68e-08;0.03746666666666666;0.0006531972647421802;
3.72e-08;0.03733333333333333;0.0008640987597877129;
3.76e-08;0.037399999999999996;0.0007899367063252587;
3.8e-08;0.03746666666666667;0.0009003702941938205;
3.84e-08;0.037533333333333335;0.0010250203250017364;
3.88e-08;0.0376;0.000979795897113272;
3.92e-08;0.03753333333333333;0.0008914407813571614;
3.96e-08;0.03753333333333333;0.0007763160868271792;
4e-08;0.03746666666666666;0.0007004760286167294;
4.04e-08;0.03726666666666666;0.0005316640543300498;
4.08e-08;0.03726666666666666;0.0005316640543300498;
4.12e-08;0.03706666666666667;0.00065319726474218;
4.16e-08;0.036866666666666666;0.00058878405775519;
4.2e-08;0.03673333333333333;0.0007339391437078865;
4.24e-08;0.0366;0.0007483314773547886;
4.28e-08;0.03673333333333333;0.0008164965809277273;
4.32e-08;0.03666666666666666;0.0009003702941938212;
4.36e-08;0.03666666666666666;0.0008640987597877143;
4.4e-08;0.0366;0.0009380831519646838;
4.44e-08;0.036399999999999995;0.000979795897113271;
4.48e-08;0.03633333333333333;0.0009605553948974864;
4.52e-08;0.0362;0.0011523888232710332;
4.56e-08;0.03606666666666667;0.0012242004193213892;
4.6e-08;0.03593333333333333;0.0011707547423208098;
4.64e-08;0.035800000000000005;0.0010658330075579384;
4.68e-08;0.03579999999999999;0.0009380831519646862;
4.72e-08;0.0356;0.0008763560920082655;
4.76e-08;0.03553333333333333;0.000993310961716755;
4.8e-08;0.03540000000000001;0.0010353743284435817;
4.84e-08;0.03540000000000001;0.0010353743284435817;
4.88e-08;0.035533333333333326;0.0011707547423208111;
4.92e-08;0.0356;0.0011865917579353068;
4.96e-08;0.035666666666666666;0.001250066664888984;
5e-08;0.0356;0.0011313708498984752;
5.04e-08;0.035666666666666666;0.0013002563849743873;
5.08e-08;0.03553333333333333;0.0011147495981908516;
5.12e-08;0.0354;0.0010954451150103318;
5.16e-08;0.035333333333333335;0.0010327955589886433;
5.2e-08;0.0352;0.0012132600710482477;
5.24e-08;0.03513333333333333;0.0013721030087667143;
5.28e-08;0.03506666666666666;0.0014009520572334621;
5.32e-08;0.034866666666666664;0.00154747105519511;
5.36e-08;0.03473333333333334;0.0015680136053831495;
5.4e-08;0.034666666666666665;0.001552632173654362;
5.44e-08;0.03473333333333333;0.0015474710551951106;
5.48e-08;0.034866666666666664;0.0013721030087667117;
5.52e-08;0.034800000000000005;0.001517893276880821;
5.56e-08;0.034666666666666665;0.0015108496505829645;
5.6e-08;0.0346;0.0014028542333400136;
5.64e-08;0.0344;0.0014966629547095748;
5.68e-08;0.034466666666666666;0.0015882904856060383;
5.72e-08;0.034333333333333334;0.0015882904856060383;
5.76e-08;0.034333333333333334;0.0015882904856060383;
5.8e-08;0.034333333333333334;0.0016280868117722314;
5.84e-08;0.034333333333333334;0.001686020956769717;
5.88e-08;0.034333333333333334;0.001686020956769717;
5.92e-08;0.034333333333333334;0.0015882904856060391;
5.96e-08;0.0342;0.0015543487382180356;
6e-08;0.0342;0.0014028542333400138;
6.04e-08;0.033933333333333336;0.0013721030087667143;
6.08e-08;0.033933333333333336;0.0014179797835888444;
6.12e-08;0.03373333333333334;0.0014895189380020196;
6.16e-08;0.0336;0.001559487095169433;
6.2e-08;0.03353333333333334;0.0017603030042202031;
6.24e-08;0.03353333333333334;0.0017603030042202031;
6.28e-08;0.03353333333333334;0.0017603030042202031;
6.32e-08;0.0334;0.0018022208521710087;
6.36e-08;0.03333333333333333;0.0017828815627143218;
6.4e-08;0.0332;0.0018761663039293707;
6.44e-08;0.032933333333333335;0.0017828815627143222;
6.48e-08;0.033;0.0018373894524569355;
6.52e-08;0.03306666666666667;0.0018532853710820315;
6.56e-08;0.033133333333333334;0.0017420294677951524;
6.6e-08;0.03333333333333333;0.0017281975195754305;
6.64e-08;0.033266666666666674;0.0018140194780284665;
6.68e-08;0.03333333333333333;0.0017281975195754292;
6.72e-08;0.03306666666666667;0.0016907591983090497;
6.76e-08;0.032799999999999996;0.0016198765385053264;
6.8e-08;0.03253333333333334;0.001510849650582966;
6.84e-08;0.03233333333333333;0.0015266521105565178;
6.88e-08;0.03233333333333333;0.0015266521105565178;
6.92e-08;0.03213333333333333;0.0015108496505829635;
6.96e-08;0.0322;0.0014254823744964356;
7e-08;0.032133333333333326;0.0012816655830077774;
7.04e-08;0.0322;0.0013084341787036901;
7.08e-08;0.03239999999999999;0.0012132600710482477;
7.12e-08;0.03233333333333333;0.001275408431313933;
7.16e-08;0.03226666666666667;0.0012816655830077779;
7.2e-08;0.0322;0.0010353743284435835;
7.24e-08;0.03206666666666667;0.0008547904226573111;
7.28e-08;0.032;0.0007155417527999322;
7.32e-08;0.032;0.0006196773353931865;
7.36e-08;0.032;0.0006196773353931865;
7.4e-08;0.031933333333333334;0.0007339391437078888;
7.44e-08;0.0318;0.0007899367063252619;
7.48e-08;0.03166666666666667;0.0007339391437078884;
7.52e-08;0.031466666666666664;0.0007447594690010091;
7.56e-08;0.031266666666666665;0.0006408327915038892;
7.6e-08;0.031133333333333336;0.0005887840577551902;
7.64e-08;0.031;0.000606630035524124;
7.68e-08;0.031;0.000606630035524124;
7.72e-08;0.030800000000000004;0.0006196773353931874;
7.76e-08;0.030733333333333335;0.0007339391437078872;
7.8e-08;0.030600000000000002;0.0007483314773547888;
7.84e-08;0.03046666666666667;0.0008547904226573126;
7.88e-08;0.030333333333333334;0.0009266426855410166;
7.92e-08;0.03006666666666667;0.0010250203250017364;
7.96e-08;0.030000000000000002;0.0010733126291998984;
8e-08;0.029866666666666666;0.0012044362443345293;
8.04e-08;0.02993333333333333;0.0014179797835888453;
8.08e-08;0.02993333333333334;0.0014624180888742695;
8.12e-08;0.029800000000000004;0.0015336231610144665;
8.16e-08;0.029733333333333334;0.0014459137825841028;
8.2e-08;0.029666666666666664;0.0011707547423208098;
8.24e-08;0.02966666666666667;0.001025020325001737;
8.28e-08;0.0296;0.0009121403400793101;
8.32e-08;0.0294;0.0008671793355471518;
8.36e-08;0.029266666666666663;0.0009266426855410166;
8.4e-08;0.029066666666666668;0.0010633281086601014;
8.44e-08;0.028866666666666665;0.0009266426855410163;
8.48e-08;0.02893333333333333;0.0009688481133111974;
8.52e-08;0.028799999999999996;0.0010430723848324239;
8.56e-08;0.028733333333333333;0.0011147495981908525;
8.6e-08;0.02886666666666667;0.0012242004193213892;
8.64e-08;0.028733333333333333;0.0013485794995722966;
8.68e-08;0.028800000000000003;0.0013623509092741118;
8.72e-08;0.028733333333333333;0.0012754084313139336;
8.76e-08;0.0286;0.0013564659966250547;
8.8e-08;0.028466666666666668;0.0011977757163453716;
8.84e-08;0.028333333333333335;0.0010557777543908884;
8.88e-08;0.028400000000000005;0.0009797958971132711;
8.92e-08;0.0282;0.0010658330075579384;
8.96e-08;0.027999999999999997;0.0011027239001672178;
9e-08;0.027800000000000002;0.0011242775458044153;
9.04e-08;0.027666666666666662;0.0012500666648889833;
9.08e-08;0.0276;0.001186591757935306;
9.12e-08;0.027399999999999997;0.0013084341787036901;
9.16e-08;0.027399999999999997;0.001152388823271035;
9.2e-08;0.027399999999999997;0.0010954451150103327;
9.24e-08;0.02733333333333333;0.0010327955589886448;
9.28e-08;0.02733333333333333;0.0010327955589886448;
9.32e-08;0.027266666666666665;0.0010557777543908882;
9.36e-08;0.027266666666666665;0.0010557777543908882;
9.4e-08;0.0272;0.0009465727652959393;
9.44e-08;0.027133333333333332;0.0009933109617167569;
9.48e-08;0.02706666666666667;0.0009688481133111982;
9.52e-08;0.026866666666666667;0.001114749598190853;
9.56e-08;0.02673333333333333;0.0012754084313139331;
9.6e-08;0.02666666666666667;0.0013544986772480317;
9.64e-08;0.026600000000000002;0.001379855064852828;
9.68e-08;0.026533333333333336;0.0013306639946532965;
9.72e-08;0.026400000000000003;0.0012132600710482483;
9.76e-08;0.026266666666666664;0.0010013324456276582;
9.8e-08;0.0262;0.0010658330075579386;
9.84e-08;0.026066666666666665;0.0012500666648889835;
9.88e-08;0.02606666666666667;0.001440370322752682;
9.92e-08;0.025933333333333336;0.0014624180888742674;
9.96e-08;0.025866666666666666;0.0015731073284002796;
1e-07;0.0258;0.001402854233340014;
1.004e-07;0.025599999999999998;0.001239354670786374;
1.008e-07;0.025533333333333328;0.0012500666648889843;
1.012e-07;0.025466666666666665;0.0011219031449580072;
1.016e-07;0.025399999999999995;0.0010658330075579386;
1.02e-07;0.0252;0.001159310139695156;
1.024e-07;0.024999999999999998;0.001065833007557939;
1.028e-07;0.024933333333333335;0.001032795558988645;
1.032e-07;0.024800000000000003;0.0011865917579353057;
1.036e-07;0.024733333333333333;0.001025020325001738;
1.04e-07;0.024533333333333334;0.0009688481133111982;
1.044e-07;0.024466666666666668;0.0009266426855410171;
1.048e-07;0.024533333333333334;0.0007447594690010106;
1.052e-07;0.024466666666666664;0.0007763160868271811;
1.056e-07;0.0244;0.000715541752799933;
1.06e-07;0.0244;0.0008390470785361218;
1.064e-07;0.02426666666666667;0.001001332445627659;
1.068e-07;0.02413333333333333;0.0010327955589886455;
1.072e-07;0.024000000000000004;0.0010119288512538814;
1.076e-07;0.0238;0.0009380831519646858;
1.08e-07;0.0236;0.001043072384832424;
1.084e-07;0.0236;0.000979795897113272;
1.088e-07;0.0236;0.0008000000000000004;
1.092e-07;0.0234;0.0007899367063252603;
1.096e-07;0.0234;0.0008671793355471527;
1.1e-07;0.023466666666666667;0.0007865536642001406;
1.104e-07;0.023400000000000004;0.0010039920318408915;
1.108e-07;0.0234;0.0008294576541331092;
1.112e-07;0.0232;0.0008000000000000004;
1.116e-07;0.023133333333333336;0.0006889605697474033;
1.12e-07;0.023133333333333336;0.0006889605697474033;
1.124e-07;0.022999999999999996;0.0007483314773547885;
1.128e-07;0.023066666666666666;0.0007447594690010106;
1.132e-07;0.022933333333333333;0.0009352361555600095;
1.136e-07;0.022933333333333333;0.0009352361555600095;
1.14e-07;0.02293333333333333;0.001001332445627658;
1.144e-07;0.02273333333333333;0.0010557777543908882;
1.148e-07;0.02273333333333333;0.0010557777543908882;
1.152e-07;0.022466666666666666;0.0010557777543908882;
1.156e-07;0.022533333333333332;0.001063328108660101;
1.16e-07;0.0224;0.0008390470785361215;
1.164e-07;0.022199999999999998;0.0009033271832508973;
1.168e-07;0.022133333333333335;0.0007447594690010098;
1.172e-07;0.022000000000000002;0.0006196773353931857;
1.176e-07;0.022000000000000002;0.0006196773353931857;
1.18e-07;0.022000000000000002;0.00043817804600413275;
1.184e-07;0.021933333333333332;0.0004676180777800046;
1.188e-07;0.022066666666666665;0.0004676180777800047;
1.192e-07;0.021933333333333332;0.00046761807778000454;
1.196e-07;0.021866666666666663;0.0006022181221672649;
1.2e-07;0.0218;0.000606630035524124;
1.204e-07;0.0218;0.000606630035524124;
1.208e-07;0.021666666666666667;0.0005887840577551897;
1.212e-07;0.0218;0.00041952353926806005;
1.216e-07;0.0218;0.00041952353926806005;
1.22e-07;0.021599999999999998;0.00035777087639996577;
1.224e-07;0.021533333333333335;0.00039327683210006937;
1.228e-07;0.021400000000000002;0.0005513619500836089;
1.232e-07;0.0214;0.0007042726744663594;
1.236e-07;0.02126666666666667;0.0007763160868271803;
1.24e-07;0.021133333333333337;0.0009605553948974872;
1.244e-07;0.021;0.0009715966241192896;
1.248e-07;0.020866666666666662;0.0009266426855410163;
1.252e-07;0.0206;0.0008294576541331084;
